s,C,kg/m2/s,m
Time,"temp","MLR","thick"
 0.0000000E+000, 2.0000000E+001, 0.0000000E+000, 1.8500000E-002
 5.0100000E+000, 7.6935654E+001, 2.5095101E-014, 1.8500000E-002
 1.0010000E+001, 1.5046916E+002, 8.2827391E-011, 1.8500000E-002
 1.5010000E+001, 2.0124857E+002, 1.1649841E-008, 1.8500000E-002
 2.0000000E+001, 2.4146080E+002, 3.6583319E-007, 1.8500000E-002
 2.5000000E+001, 2.7492038E+002, 4.8038701E-006, 1.8499993E-002
 3.0000000E+001, 3.0348175E+002, 3.5618217E-005, 1.8499926E-002
 3.5000000E+001, 3.2807507E+002, 1.7550660E-004, 1.8499551E-002
 4.0000000E+001, 3.4902075E+002, 6.2559533E-004, 1.8498048E-002
 4.5010000E+001, 3.6606165E+002, 1.6684011E-003, 1.8493533E-002
 5.0010000E+001, 3.7875845E+002, 3.3783866E-003, 1.8483266E-002
 5.5010000E+001, 3.8736279E+002, 5.4066088E-003, 1.8465102E-002
 6.0010000E+001, 3.9146021E+002, 7.0712930E-003, 1.8439157E-002
 6.5010000E+001, 3.9542627E+002, 8.7662125E-003, 1.8406313E-002
 7.0010000E+001, 3.9827051E+002, 1.0124572E-002, 1.8367102E-002
 7.5000000E+001, 4.0035861E+002, 1.1208190E-002, 1.8322915E-002
 8.0000000E+001, 4.0198050E+002, 1.2092753E-002, 1.8274678E-002
 8.5000000E+001, 4.0328702E+002, 1.2830533E-002, 1.8223051E-002
 9.0000000E+001, 4.0395584E+002, 1.3415263E-002, 1.8168624E-002
 9.5000000E+001, 4.0209442E+002, 1.3671152E-002, 1.8112665E-002
 1.0000000E+002, 4.0338742E+002, 1.4299124E-002, 1.8054750E-002
 1.0500000E+002, 4.0449252E+002, 1.4816516E-002, 1.7994456E-002
 1.1000000E+002, 4.0542361E+002, 1.5245933E-002, 1.7932214E-002
 1.1500000E+002, 4.0574274E+002, 1.5558860E-002, 1.7868344E-002
 1.2000000E+002, 4.0396643E+002, 1.5618091E-002, 1.7803976E-002
 1.2500000E+002, 4.0506235E+002, 1.6086143E-002, 1.7738331E-002
 1.3000000E+002, 4.0599509E+002, 1.6454712E-002, 1.7670956E-002
 1.3500000E+002, 4.0678571E+002, 1.6758883E-002, 1.7602200E-002
 1.4000000E+002, 4.0549173E+002, 1.6771805E-002, 1.7532634E-002
 1.4500000E+002, 4.0548615E+002, 1.7045416E-002, 1.7462866E-002
 1.5000000E+002, 4.0644562E+002, 1.7405555E-002, 1.7391533E-002
 1.5500000E+002, 4.0725131E+002, 1.7687708E-002, 1.7318886E-002
 1.6001000E+002, 4.0659457E+002, 1.7746037E-002, 1.7245267E-002
 1.6501000E+002, 4.0594540E+002, 1.7896818E-002, 1.7171700E-002
 1.7001000E+002, 4.0691815E+002, 1.8260544E-002, 1.7096829E-002
 1.7501000E+002, 4.0773328E+002, 1.8538460E-002, 1.7020652E-002
 1.8001000E+002, 4.0711020E+002, 1.8589161E-002, 1.6943600E-002
 1.8501000E+002, 4.0650153E+002, 1.8743502E-002, 1.6866613E-002
 1.9001000E+002, 4.0746738E+002, 1.9106893E-002, 1.6788237E-002
 1.9501000E+002, 4.0827637E+002, 1.9384891E-002, 1.6708557E-002
 2.0001000E+002, 4.0721756E+002, 1.9379048E-002, 1.6628154E-002
 2.0501000E+002, 4.0717715E+002, 1.9640356E-002, 1.6547635E-002
 2.1001000E+002, 4.0811218E+002, 1.9992724E-002, 1.6465575E-002
 2.1501000E+002, 4.0889682E+002, 2.0270383E-002, 1.6382230E-002
 2.2001000E+002, 4.0704263E+002, 2.0183427E-002, 1.6298547E-002
 2.2501000E+002, 4.0796545E+002, 2.0608313E-002, 1.6214132E-002
 2.3001000E+002, 4.0884741E+002, 2.0942565E-002, 1.6128112E-002
 2.3501000E+002, 4.0842685E+002, 2.1043578E-002, 1.6041003E-002
 2.4001000E+002, 4.0786917E+002, 2.1245329E-002, 1.5953762E-002
 2.4501000E+002, 4.0884201E+002, 2.1653756E-002, 1.5864935E-002
 2.5001000E+002, 4.0952948E+002, 2.1953562E-002, 1.5774628E-002
 2.5501000E+002, 4.0787115E+002, 2.1937067E-002, 1.5683921E-002
 2.6001000E+002, 4.0890546E+002, 2.2421272E-002, 1.5592070E-002
 2.6501000E+002, 4.0977844E+002, 2.2787359E-002, 1.5498482E-002
 2.7001000E+002, 4.0854364E+002, 2.2821294E-002, 1.5404008E-002
 2.7501000E+002, 4.0905377E+002, 2.3261055E-002, 1.5308768E-002
 2.8001000E+002, 4.0996848E+002, 2.3673322E-002, 1.5211600E-002
 2.8501000E+002, 4.0909235E+002, 2.3775138E-002, 1.5113253E-002
 2.9001000E+002, 4.0930609E+002, 2.4199309E-002, 1.5014168E-002
 2.9501000E+002, 4.1024277E+002, 2.4652593E-002, 1.4913026E-002
 3.0001000E+002, 4.0941766E+002, 2.4789846E-002, 1.4810557E-002
 3.0501000E+002, 4.0966251E+002, 2.5254145E-002, 1.4707183E-002
 3.1001000E+002, 4.1059576E+002, 2.5734615E-002, 1.4601617E-002
 3.1501000E+002, 4.0954068E+002, 2.5876388E-002, 1.4494739E-002
 3.2001000E+002, 4.1011218E+002, 2.6428424E-002, 1.4386599E-002
 3.2501000E+002, 4.1092822E+002, 2.6906630E-002, 1.4276148E-002
 3.3001000E+002, 4.0960275E+002, 2.7072780E-002, 1.4164575E-002
 3.3501000E+002, 4.1064392E+002, 2.7710406E-002, 1.4051120E-002
 3.4001000E+002, 4.1062170E+002, 2.8042154E-002, 1.3935519E-002
 3.4501000E+002, 4.1025488E+002, 2.8464457E-002, 1.3818840E-002
 3.5001000E+002, 4.1122485E+002, 2.9028917E-002, 1.3699789E-002
 3.5501000E+002, 4.1023575E+002, 2.9218126E-002, 1.3579221E-002
 3.6001000E+002, 4.1094702E+002, 2.9804770E-002, 1.3457105E-002
 3.6501000E+002, 4.1098111E+002, 3.0105220E-002, 1.3332890E-002
 3.7001000E+002, 4.1067993E+002, 3.0472973E-002, 1.3207766E-002
 3.7501000E+002, 4.1161594E+002, 3.0928990E-002, 1.3080611E-002
 3.8001000E+002, 4.1043204E+002, 3.0991992E-002, 1.2952572E-002
 3.8501000E+002, 4.1145462E+002, 3.1473406E-002, 1.2823184E-002
 3.9001000E+002, 4.1092343E+002, 3.1539023E-002, 1.2692643E-002
 3.9501000E+002, 4.1129153E+002, 3.1876341E-002, 1.2561535E-002
 4.0001000E+002, 4.1139288E+002, 3.1986166E-002, 1.2429146E-002
 4.0501000E+002, 4.1115500E+002, 3.2161720E-002, 1.2296624E-002
 4.1001000E+002, 4.1186200E+002, 3.2361981E-002, 1.2162921E-002
 4.1501000E+002, 4.1106244E+002, 3.2353871E-002, 1.2029178E-002
 4.2001000E+002, 4.1210391E+002, 3.2628153E-002, 1.1894595E-002
 4.2501000E+002, 4.1130618E+002, 3.2524865E-002, 1.1759775E-002
 4.3001000E+002, 4.1218643E+002, 3.2774970E-002, 1.1624614E-002
 4.3501000E+002, 4.1193002E+002, 3.2683481E-002, 1.1489031E-002
 4.4001000E+002, 4.1245837E+002, 3.2828759E-002, 1.1353557E-002
 4.4501000E+002, 4.1282529E+002, 3.2734260E-002, 1.1217696E-002
 4.5001000E+002, 4.1311682E+002, 3.2713518E-002, 1.1082401E-002
 4.5501000E+002, 4.1429694E+002, 3.2570019E-002, 1.0947132E-002
 4.6001000E+002, 4.1463846E+002, 3.2238103E-002, 1.0813116E-002
 4.6501000E+002, 4.1693875E+002, 3.1922877E-002, 1.0680217E-002
 4.7001000E+002, 4.1842599E+002, 3.1034004E-002, 1.0549804E-002
 4.7501000E+002, 4.2243503E+002, 3.0175602E-002, 1.0423041E-002
 4.8001000E+002, 4.2786685E+002, 2.8341359E-002, 1.0301273E-002
 4.8501000E+002, 4.3628488E+002, 2.5903888E-002, 1.0189171E-002
 4.9001000E+002, 4.5066763E+002, 2.2181176E-002, 1.0088818E-002
 4.9501000E+002, 5.2221576E+002, 1.0577496E-002, 1.0013973E-002
 5.0001000E+002, 6.2878058E+002, 0.0000000E+000, 9.9999998E-003
 5.0501000E+002, 6.4087653E+002, 0.0000000E+000, 9.9999998E-003
 5.1001000E+002, 6.4737000E+002, 0.0000000E+000, 9.9999998E-003
 5.1501000E+002, 6.5129187E+002, 0.0000000E+000, 9.9999998E-003
 5.2001000E+002, 6.5359216E+002, 0.0000000E+000, 9.9999998E-003
 5.2501000E+002, 6.5490460E+002, 0.0000000E+000, 9.9999998E-003
 5.3001000E+002, 6.5564117E+002, 0.0000000E+000, 9.9999998E-003
 5.3501000E+002, 6.5605084E+002, 0.0000000E+000, 9.9999998E-003
 5.4001000E+002, 6.5627747E+002, 0.0000000E+000, 9.9999998E-003
 5.4501000E+002, 6.5640259E+002, 0.0000000E+000, 9.9999998E-003
 5.5001000E+002, 6.5647144E+002, 0.0000000E+000, 9.9999998E-003
 5.5501000E+002, 6.5650934E+002, 0.0000000E+000, 9.9999998E-003
 5.6001000E+002, 6.5653021E+002, 0.0000000E+000, 9.9999998E-003
 5.6501000E+002, 6.5654169E+002, 0.0000000E+000, 9.9999998E-003
 5.7001000E+002, 6.5654810E+002, 0.0000000E+000, 9.9999998E-003
 5.7501000E+002, 6.5655157E+002, 0.0000000E+000, 9.9999998E-003
 5.8001000E+002, 6.5655347E+002, 0.0000000E+000, 9.9999998E-003
 5.8501000E+002, 6.5655450E+002, 0.0000000E+000, 9.9999998E-003
 5.9001000E+002, 6.5655505E+002, 0.0000000E+000, 9.9999998E-003
 5.9501000E+002, 6.5655536E+002, 0.0000000E+000, 9.9999998E-003
 6.0001000E+002, 6.5655554E+002, 0.0000000E+000, 9.9999998E-003
 6.0501000E+002, 6.5655560E+002, 0.0000000E+000, 9.9999998E-003
 6.1001000E+002, 6.5655573E+002, 0.0000000E+000, 9.9999998E-003
 6.1501000E+002, 6.5655579E+002, 0.0000000E+000, 9.9999998E-003
 6.2001000E+002, 6.5655579E+002, 0.0000000E+000, 9.9999998E-003
 6.2501000E+002, 6.5655579E+002, 0.0000000E+000, 9.9999998E-003
 6.3001000E+002, 6.5655579E+002, 0.0000000E+000, 9.9999998E-003
 6.3501000E+002, 6.5655573E+002, 0.0000000E+000, 9.9999998E-003
 6.4001000E+002, 6.5655573E+002, 0.0000000E+000, 9.9999998E-003
 6.4501000E+002, 6.5655579E+002, 0.0000000E+000, 9.9999998E-003
 6.5001000E+002, 6.5655573E+002, 0.0000000E+000, 9.9999998E-003
 6.5501000E+002, 6.5655579E+002, 0.0000000E+000, 9.9999998E-003
 6.6001000E+002, 6.5655579E+002, 0.0000000E+000, 9.9999998E-003
 6.6501000E+002, 6.5655573E+002, 0.0000000E+000, 9.9999998E-003
 6.7001000E+002, 6.5655579E+002, 0.0000000E+000, 9.9999998E-003
 6.7501000E+002, 6.5655585E+002, 0.0000000E+000, 9.9999998E-003
 6.8001000E+002, 6.5655579E+002, 0.0000000E+000, 9.9999998E-003
 6.8501000E+002, 6.5655579E+002, 0.0000000E+000, 9.9999998E-003
 6.9001000E+002, 6.5655573E+002, 0.0000000E+000, 9.9999998E-003
 6.9501000E+002, 6.5655579E+002, 0.0000000E+000, 9.9999998E-003
 7.0001000E+002, 6.5655579E+002, 0.0000000E+000, 9.9999998E-003
 7.0501000E+002, 6.5655579E+002, 0.0000000E+000, 9.9999998E-003
 7.1001000E+002, 6.5655579E+002, 0.0000000E+000, 9.9999998E-003
 7.1501000E+002, 6.5655585E+002, 0.0000000E+000, 9.9999998E-003
 7.2001000E+002, 6.5655579E+002, 0.0000000E+000, 9.9999998E-003
 7.2501000E+002, 6.5655579E+002, 0.0000000E+000, 9.9999998E-003
 7.3001000E+002, 6.5655579E+002, 0.0000000E+000, 9.9999998E-003
 7.3501000E+002, 6.5655579E+002, 0.0000000E+000, 9.9999998E-003
 7.4001000E+002, 6.5655579E+002, 0.0000000E+000, 9.9999998E-003
 7.4501000E+002, 6.5655573E+002, 0.0000000E+000, 9.9999998E-003
 7.5001000E+002, 6.5655579E+002, 0.0000000E+000, 9.9999998E-003
 7.5501000E+002, 6.5655579E+002, 0.0000000E+000, 9.9999998E-003
 7.6001000E+002, 6.5655579E+002, 0.0000000E+000, 9.9999998E-003
 7.6501000E+002, 6.5655579E+002, 0.0000000E+000, 9.9999998E-003
 7.7001000E+002, 6.5655579E+002, 0.0000000E+000, 9.9999998E-003
 7.7501000E+002, 6.5655579E+002, 0.0000000E+000, 9.9999998E-003
 7.8001000E+002, 6.5655579E+002, 0.0000000E+000, 9.9999998E-003
 7.8501000E+002, 6.5655579E+002, 0.0000000E+000, 9.9999998E-003
 7.9001000E+002, 6.5655573E+002, 0.0000000E+000, 9.9999998E-003
 7.9501000E+002, 6.5655573E+002, 0.0000000E+000, 9.9999998E-003
 8.0001000E+002, 6.5655573E+002, 0.0000000E+000, 9.9999998E-003
